mini_model | t (second),mini_model | A (uM),mini_model | B (uM),mini_model | C (uM),mini_model | P (uM)
0,10,40,0,0
1,8.88467,38.8847,1.11269,0.00250478
2,7.91882,37.9188,2.07354,0.00709137
3,7.07754,37.0775,2.90885,0.0124388
4,6.34105,36.341,3.63878,0.0181834
5,5.69342,35.6934,4.27943,0.024171
6,5.1217,35.1217,4.84385,0.0303228
7,4.61526,34.6153,5.34275,0.0365923
8,4.16528,34.1653,5.78498,0.0429501
9,3.76437,33.7644,6.17796,0.0493761
10,3.40633,33.4063,6.52794,0.0558564
11,3.08587,33.0859,6.8402,0.0623806
12,2.79851,32.7985,7.11926,0.0689409
13,2.54037,32.5404,7.369,0.0755313
14,2.30812,32.3081,7.59276,0.0821472
15,2.09888,32.0989,7.79344,0.0887845
16,1.91012,31.9101,7.97357,0.0954404
17,1.73966,31.7397,8.13535,0.102112
18,1.58555,31.5855,8.28072,0.108798
19,1.4461,31.4461,8.41139,0.115495
20,1.3198,31.3198,8.52885,0.122204
21,1.20534,31.2053,8.63445,0.128921
22,1.10153,31.1015,8.72937,0.135646
23,1.00731,31.0073,8.81466,0.142379
24,0.92176,30.9218,8.89126,0.149118
25,0.844035,30.844,8.96001,0.155862
26,0.773387,30.7734,9.02166,0.162611
27,0.709144,30.7091,9.07689,0.169365
28,0.650702,30.6507,9.12629,0.176123
29,0.597519,30.5975,9.17043,0.182884
30,0.549106,30.5491,9.20978,0.189648
31,0.50502,30.505,9.24479,0.196414
32,0.464866,30.4649,9.27586,0.203183
33,0.428282,30.4283,9.30335,0.209955
34,0.394945,30.3949,9.32759,0.216728
35,0.364558,30.3646,9.34887,0.223502
36,0.336856,30.3369,9.36745,0.230278
37,0.311597,30.3116,9.38359,0.237055
38,0.288562,30.2886,9.3975,0.243833
39,0.267551,30.2676,9.40938,0.250613
40,0.248384,30.2484,9.41941,0.257392
41,0.230897,30.2309,9.42776,0.264173
42,0.214941,30.2149,9.43458,0.270954
43,0.200379,30.2004,9.44,0.277735
44,0.187088,30.1871,9.44415,0.284517
45,0.174957,30.175,9.44714,0.291299
46,0.163882,30.1639,9.44907,0.298081
47,0.153772,30.1538,9.45004,0.304864
48,0.14454,30.1445,9.45012,0.311646
49,0.13611,30.1361,9.44941,0.318428
50,0.128411,30.1284,9.44796,0.32521
51,0.12138,30.1214,9.44585,0.331992
52,0.114957,30.115,9.44313,0.338774
53,0.10909,30.1091,9.43985,0.345556
54,0.10373,30.1037,9.43607,0.352338
55,0.0988324,30.0988,9.43183,0.359119
56,0.0943572,30.0944,9.42717,0.3659
57,0.0902674,30.0903,9.42212,0.37268
58,0.0865294,30.0865,9.41672,0.37946
59,0.0831125,30.0831,9.41101,0.38624
60,0.0799888,30.08,9.405,0.39302
61,0.0771326,30.0771,9.39873,0.399799
62,0.0745208,30.0745,9.39221,0.406577
63,0.0721319,30.0721,9.38548,0.413355
64,0.0699466,30.0699,9.37854,0.420133
65,0.0679473,30.0679,9.37142,0.42691
66,0.0661176,30.0661,9.36413,0.433686
67,0.0644429,30.0644,9.35669,0.440463
68,0.0629097,30.0629,9.3491,0.447238
69,0.0615057,30.0615,9.3414,0.454013
70,0.0602197,30.0602,9.33357,0.460788
71,0.0590414,30.059,9.32565,0.467562
72,0.0579615,30.058,9.31762,0.474335
73,0.0569714,30.057,9.30951,0.481108
74,0.0560633,30.0561,9.30132,0.48788
75,0.0552301,30.0552,9.29306,0.494652
76,0.0544652,30.0545,9.28473,0.501423
77,0.0537629,30.0538,9.27634,0.508193
78,0.0531176,30.0531,9.2679,0.514963
79,0.0525243,30.0525,9.25941,0.521732
80,0.0519787,30.052,9.25087,0.528501
81,0.0514765,30.0515,9.24229,0.535269
82,0.0510139,30.051,9.23368,0.542036
83,0.0505876,30.0506,9.22503,0.548803
84,0.0501943,30.0502,9.21635,0.555569
85,0.0498313,30.0498,9.20765,0.562335
86,0.0494958,30.0495,9.19892,0.5691
87,0.0491856,30.0492,9.19016,0.575864
88,0.0488984,30.0489,9.18139,0.582628
89,0.0486322,30.0486,9.1726,0.589391
90,0.0483852,30.0484,9.16379,0.596153
91,0.0481558,30.0482,9.15497,0.602915
92,0.0479423,30.0479,9.14614,0.609676
93,0.0477435,30.0477,9.13729,0.616437
94,0.047558,30.0476,9.12843,0.623197
95,0.0473848,30.0474,9.11956,0.629956
96,0.0472226,30.0472,9.11069,0.636714
97,0.0470706,30.0471,9.10181,0.643472
98,0.046928,30.0469,9.09292,0.650229
99,0.0467938,30.0468,9.08402,0.656986
100,0.0466674,30.0467,9.07512,0.663742
101,0.046548,30.0465,9.06622,0.670497
102,0.0464351,30.0464,9.05731,0.677252
103,0.0463282,30.0463,9.0484,0.684006
104,0.0462266,30.0462,9.03949,0.690759
105,0.04613,30.0461,9.03057,0.697512
106,0.0460378,30.046,9.02166,0.704264
107,0.0459498,30.0459,9.01274,0.711015
108,0.0458656,30.0459,9.00382,0.717765
109,0.0457847,30.0458,8.9949,0.724515
110,0.0457071,30.0457,8.98598,0.731265
111,0.0456322,30.0456,8.97706,0.738013
112,0.04556,30.0456,8.96815,0.744761
113,0.0454902,30.0455,8.95923,0.751509
114,0.0454226,30.0454,8.95031,0.758255
115,0.045357,30.0454,8.94139,0.765001
116,0.0452933,30.0453,8.93248,0.771746
117,0.0452311,30.0452,8.92356,0.778491
118,0.0451706,30.0452,8.91465,0.785235
119,0.0451114,30.0451,8.90574,0.791978
120,0.0450535,30.0451,8.89683,0.79872
121,0.0449968,30.045,8.88792,0.805462
122,0.0449411,30.0449,8.87901,0.812203
123,0.0448864,30.0449,8.87011,0.818944
124,0.0448326,30.0448,8.86121,0.825684
125,0.0447796,30.0448,8.85231,0.832423
126,0.0447273,30.0447,8.84341,0.839161
127,0.0446757,30.0447,8.83451,0.845899
128,0.0446248,30.0446,8.82562,0.852636
129,0.0445744,30.0446,8.81673,0.859372
130,0.0445245,30.0445,8.80784,0.866108
131,0.0444751,30.0445,8.79895,0.872843
132,0.0444262,30.0444,8.79007,0.879577
133,0.0443776,30.0444,8.78119,0.886311
134,0.0443294,30.0443,8.77231,0.893044
135,0.0442816,30.0443,8.76343,0.899776
136,0.0442341,30.0442,8.75456,0.906507
137,0.0441868,30.0442,8.74569,0.913238
138,0.0441398,30.0441,8.73682,0.919968
139,0.0440931,30.0441,8.72795,0.926698
140,0.0440466,30.044,8.71909,0.933426
141,0.0440003,30.044,8.71023,0.940154
142,0.0439541,30.044,8.70137,0.946881
143,0.0439082,30.0439,8.69252,0.953608
144,0.0438624,30.0439,8.68367,0.960334
145,0.0438167,30.0438,8.67482,0.967059
146,0.0437712,30.0438,8.66597,0.973783
147,0.0437258,30.0437,8.65713,0.980507
148,0.0436805,30.0437,8.64829,0.98723
149,0.0436353,30.0436,8.63945,0.993952
150,0.0435902,30.0436,8.63061,1.00067
151,0.0435452,30.0435,8.62178,1.00739
152,0.0435003,30.0435,8.61295,1.01412
153,0.0434555,30.0435,8.60412,1.02083
154,0.0434107,30.0434,8.5953,1.02755
155,0.043366,30.0434,8.58648,1.03427
156,0.0433214,30.0433,8.57766,1.04099
157,0.0432768,30.0433,8.56884,1.04771
158,0.0432323,30.0432,8.56003,1.05442
159,0.0431879,30.0432,8.55122,1.06114
160,0.0431435,30.0431,8.54242,1.06785
161,0.0430992,30.0431,8.53361,1.07456
162,0.0430549,30.0431,8.52481,1.08128
163,0.0430106,30.043,8.51601,1.08799
164,0.0429663,30.043,8.50722,1.0947
165,0.0429221,30.0429,8.49843,1.10141
166,0.042878,30.0429,8.48964,1.10812
167,0.0428338,30.0428,8.48085,1.11483
168,0.0427897,30.0428,8.47207,1.12154
169,0.0427456,30.0427,8.46329,1.12825
170,0.0427015,30.0427,8.45451,1.13495
171,0.0426575,30.0427,8.44573,1.14166
172,0.0426134,30.0426,8.43696,1.14837
173,0.0425694,30.0426,8.42819,1.15507
174,0.0425254,30.0425,8.41943,1.16178
175,0.0424815,30.0425,8.41066,1.16848
176,0.0424375,30.0424,8.4019,1.17518
177,0.0423936,30.0424,8.39314,1.18188
178,0.0423497,30.0423,8.38439,1.18858
179,0.0423058,30.0423,8.37564,1.19529
180,0.042262,30.0423,8.36689,1.20198
181,0.0422181,30.0422,8.35814,1.20868
182,0.0421743,30.0422,8.3494,1.21538
183,0.0421305,30.0421,8.34066,1.22208
184,0.0420868,30.0421,8.33192,1.22878
185,0.042043,30.042,8.32319,1.23547
186,0.0419993,30.042,8.31446,1.24217
187,0.0419556,30.042,8.30573,1.24886
188,0.0419119,30.0419,8.29701,1.25556
189,0.0418682,30.0419,8.28828,1.26225
190,0.0418245,30.0418,8.27956,1.26894
191,0.0417809,30.0418,8.27085,1.27563
192,0.0417373,30.0417,8.26213,1.28232
193,0.0416937,30.0417,8.25342,1.28901
194,0.0416501,30.0417,8.24472,1.2957
195,0.0416065,30.0416,8.23601,1.30239
196,0.041563,30.0416,8.22731,1.30908
197,0.0415194,30.0415,8.21861,1.31576
198,0.0414759,30.0415,8.20991,1.32245
199,0.0414324,30.0414,8.20122,1.32914
200,0.0413889,30.0414,8.19253,1.33582
201,0.0413454,30.0413,8.18384,1.3425
202,0.0413019,30.0413,8.17516,1.34919
203,0.0412584,30.0413,8.16648,1.35587
204,0.041215,30.0412,8.1578,1.36255
205,0.0411716,30.0412,8.14912,1.36923
206,0.0411281,30.0411,8.14045,1.37591
207,0.0410847,30.0411,8.13178,1.38259
208,0.0410414,30.041,8.12311,1.38927
209,0.040998,30.041,8.11445,1.39595
210,0.0409546,30.041,8.10579,1.40262
211,0.0409113,30.0409,8.09713,1.4093
212,0.0408679,30.0409,8.08848,1.41597
213,0.0408246,30.0408,8.07982,1.42265
214,0.0407813,30.0408,8.07117,1.42932
215,0.040738,30.0407,8.06253,1.43599
216,0.0406947,30.0407,8.05389,1.44267
217,0.0406515,30.0407,8.04525,1.44934
218,0.0406082,30.0406,8.03661,1.45601
219,0.040565,30.0406,8.02797,1.46268
220,0.0405218,30.0405,8.01934,1.46935
221,0.0404786,30.0405,8.01071,1.47601
222,0.0404354,30.0404,8.00209,1.48268
223,0.0403922,30.0404,7.99346,1.48935
224,0.0403491,30.0403,7.98484,1.49601
225,0.0403059,30.0403,7.97623,1.50268
226,0.0402628,30.0403,7.96761,1.50934
227,0.0402196,30.0402,7.959,1.51601
228,0.0401765,30.0402,7.9504,1.52267
229,0.0401335,30.0401,7.94179,1.52933
230,0.0400904,30.0401,7.93319,1.53599
231,0.0400474,30.04,7.92459,1.54265
232,0.0400043,30.04,7.91599,1.54931
233,0.0399613,30.04,7.9074,1.55597
234,0.0399183,30.0399,7.89881,1.56263
235,0.0398753,30.0399,7.89022,1.56928
236,0.0398323,30.0398,7.88164,1.57594
237,0.0397894,30.0398,7.87306,1.58259
238,0.0397464,30.0397,7.86448,1.58925
239,0.0397035,30.0397,7.8559,1.5959
240,0.0396606,30.0397,7.84733,1.60255
241,0.0396177,30.0396,7.83876,1.60921
242,0.0395748,30.0396,7.83019,1.61586
243,0.039532,30.0395,7.82163,1.62251
244,0.0394891,30.0395,7.81307,1.62916
245,0.0394463,30.0394,7.80451,1.63581
246,0.0394035,30.0394,7.79595,1.64245
247,0.0393607,30.0394,7.7874,1.6491
248,0.0393179,30.0393,7.77885,1.65575
249,0.0392751,30.0393,7.77031,1.66239
250,0.0392324,30.0392,7.76176,1.66904
251,0.0391896,30.0392,7.75322,1.67568
252,0.0391469,30.0391,7.74469,1.68232
253,0.0391042,30.0391,7.73615,1.68896
254,0.0390615,30.0391,7.72762,1.69561
255,0.0390188,30.039,7.71909,1.70225
256,0.0389762,30.039,7.71057,1.70889
257,0.0389335,30.0389,7.70204,1.71552
258,0.0388909,30.0389,7.69352,1.72216
259,0.0388483,30.0388,7.68501,1.7288
260,0.0388057,30.0388,7.67649,1.73543
261,0.0387631,30.0388,7.66798,1.74207
262,0.0387205,30.0387,7.65948,1.7487
263,0.0386779,30.0387,7.65097,1.75534
264,0.0386354,30.0386,7.64247,1.76197
265,0.0385928,30.0386,7.63397,1.7686
266,0.0385503,30.0386,7.62548,1.77523
267,0.0385078,30.0385,7.61698,1.78186
268,0.0384653,30.0385,7.60849,1.78849
269,0.0384228,30.0384,7.60001,1.79512
270,0.0383804,30.0384,7.59152,1.80175
271,0.0383379,30.0383,7.58304,1.80837
272,0.0382955,30.0383,7.57456,1.815
273,0.038253,30.0383,7.56609,1.82162
274,0.0382106,30.0382,7.55762,1.82825
275,0.0381682,30.0382,7.54915,1.83487
276,0.0381258,30.0381,7.54068,1.84149
277,0.0380835,30.0381,7.53222,1.84812
278,0.0380411,30.038,7.52376,1.85474
279,0.0379988,30.038,7.5153,1.86136
280,0.0379564,30.038,7.50685,1.86797
281,0.0379141,30.0379,7.49839,1.87459
282,0.0378718,30.0379,7.48995,1.88121
283,0.0378295,30.0378,7.4815,1.88783
284,0.0377872,30.0378,7.47306,1.89444
285,0.037745,30.0377,7.46462,1.90106
286,0.0377027,30.0377,7.45618,1.90767
287,0.0376605,30.0377,7.44775,1.91428
288,0.0376183,30.0376,7.43932,1.92089
289,0.0375761,30.0376,7.43089,1.9275
290,0.0375339,30.0375,7.42247,1.93411
291,0.0374918,30.0375,7.41405,1.94072
292,0.0374496,30.0374,7.40563,1.94733
293,0.0374075,30.0374,7.39721,1.95394
294,0.0373654,30.0374,7.3888,1.96055
295,0.0373232,30.0373,7.38039,1.96715
296,0.0372812,30.0373,7.37198,1.97376
297,0.0372391,30.0372,7.36358,1.98036
298,0.037197,30.0372,7.35518,1.98696
299,0.037155,30.0372,7.34678,1.99356
300,0.0371129,30.0371,7.33839,2.00016
301,0.0370709,30.0371,7.32999,2.00676
302,0.0370289,30.037,7.32161,2.01336
303,0.0369869,30.037,7.31322,2.01996
304,0.036945,30.0369,7.30484,2.02656
305,0.036903,30.0369,7.29646,2.03316
306,0.0368611,30.0369,7.28808,2.03975
307,0.0368191,30.0368,7.27971,2.04635
308,0.0367772,30.0368,7.27134,2.05294
309,0.0367353,30.0367,7.26297,2.05953
310,0.0366935,30.0367,7.2546,2.06612
311,0.0366516,30.0367,7.24624,2.07272
312,0.0366097,30.0366,7.23788,2.07931
313,0.0365679,30.0366,7.22953,2.08589
314,0.0365261,30.0365,7.22118,2.09248
315,0.0364843,30.0365,7.21283,2.09907
316,0.0364425,30.0364,7.20448,2.10566
317,0.0364007,30.0364,7.19614,2.11224
318,0.0363589,30.0364,7.1878,2.11883
319,0.0363172,30.0363,7.17946,2.12541
320,0.0362755,30.0363,7.17112,2.13199
321,0.0362337,30.0362,7.16279,2.13857
322,0.036192,30.0362,7.15446,2.14515
323,0.0361503,30.0362,7.14614,2.15173
324,0.0361087,30.0361,7.13781,2.15831
325,0.036067,30.0361,7.12949,2.16489
326,0.0360254,30.036,7.12118,2.17147
327,0.0359837,30.036,7.11286,2.17804
328,0.0359421,30.0359,7.10455,2.18462
329,0.0359005,30.0359,7.09625,2.19119
330,0.0358589,30.0359,7.08794,2.19777
331,0.0358174,30.0358,7.07964,2.20434
332,0.0357758,30.0358,7.07134,2.21091
333,0.0357342,30.0357,7.06305,2.21748
334,0.0356927,30.0357,7.05475,2.22405
335,0.0356512,30.0357,7.04646,2.23062
336,0.0356097,30.0356,7.03818,2.23719
337,0.0355682,30.0356,7.02989,2.24375
338,0.0355268,30.0355,7.02161,2.25032
339,0.0354853,30.0355,7.01334,2.25688
340,0.0354439,30.0354,7.00506,2.26345
341,0.0354025,30.0354,6.99679,2.27001
342,0.0353611,30.0354,6.98852,2.27657
343,0.0353197,30.0353,6.98026,2.28313
344,0.0352783,30.0353,6.97199,2.28969
345,0.0352369,30.0352,6.96373,2.29625
346,0.0351956,30.0352,6.95548,2.30281
347,0.0351542,30.0352,6.94722,2.30936
348,0.0351129,30.0351,6.93897,2.31592
349,0.0350716,30.0351,6.93073,2.32247
350,0.0350303,30.035,6.92248,2.32903
351,0.034989,30.035,6.91424,2.33558
352,0.0349478,30.0349,6.906,2.34213
353,0.0349065,30.0349,6.89777,2.34868
354,0.0348653,30.0349,6.88954,2.35523
355,0.0348241,30.0348,6.88131,2.36178
356,0.0347829,30.0348,6.87308,2.36833
357,0.0347417,30.0347,6.86486,2.37488
358,0.0347005,30.0347,6.85664,2.38142
359,0.0346593,30.0347,6.84842,2.38797
360,0.0346182,30.0346,6.84021,2.39451
361,0.0345771,30.0346,6.832,2.40105
362,0.034536,30.0345,6.82379,2.4076
363,0.0344949,30.0345,6.81558,2.41414
364,0.0344538,30.0345,6.80738,2.42068
365,0.0344127,30.0344,6.79918,2.42722
366,0.0343717,30.0344,6.79099,2.43375
367,0.0343306,30.0343,6.7828,2.44029
368,0.0342896,30.0343,6.77461,2.44683
369,0.0342486,30.0342,6.76642,2.45336
370,0.0342076,30.0342,6.75824,2.4599
371,0.0341666,30.0342,6.75006,2.46643
372,0.0341257,30.0341,6.74188,2.47296
373,0.0340847,30.0341,6.73371,2.47949
374,0.0340438,30.034,6.72553,2.48602
375,0.0340029,30.034,6.71737,2.49255
376,0.0339619,30.034,6.7092,2.49908
377,0.0339211,30.0339,6.70104,2.5056
378,0.0338802,30.0339,6.69288,2.51213
379,0.0338393,30.0338,6.68472,2.51865
380,0.0337985,30.0338,6.67657,2.52518
381,0.0337577,30.0338,6.66842,2.5317
382,0.0337169,30.0337,6.66027,2.53822
383,0.0336761,30.0337,6.65213,2.54474
384,0.0336353,30.0336,6.64399,2.55126
385,0.0335945,30.0336,6.63585,2.55778
386,0.0335538,30.0336,6.62772,2.5643
387,0.033513,30.0335,6.61959,2.57081
388,0.0334723,30.0335,6.61146,2.57733
389,0.0334316,30.0334,6.60333,2.58384
390,0.0333909,30.0334,6.59521,2.59035
391,0.0333502,30.0334,6.58709,2.59687
392,0.0333096,30.0333,6.57898,2.60338
393,0.0332689,30.0333,6.57086,2.60989
394,0.0332283,30.0332,6.56275,2.6164
395,0.0331877,30.0332,6.55465,2.6229
396,0.0331471,30.0331,6.54654,2.62941
397,0.0331065,30.0331,6.53844,2.63592
398,0.0330659,30.0331,6.53034,2.64242
399,0.0330254,30.033,6.52225,2.64892
400,0.0329848,30.033,6.51416,2.65543
401,0.0329443,30.0329,6.50607,2.66193
402,0.0329038,30.0329,6.49798,2.66843
403,0.0328633,30.0329,6.4899,2.67493
404,0.0328229,30.0328,6.48182,2.68143
405,0.0327824,30.0328,6.47375,2.68792
406,0.0327419,30.0327,6.46567,2.69442
407,0.0327015,30.0327,6.4576,2.70091
408,0.0326611,30.0327,6.44954,2.70741
409,0.0326207,30.0326,6.44147,2.7139
410,0.0325803,30.0326,6.43341,2.72039
411,0.03254,30.0325,6.42536,2.72688
412,0.0324996,30.0325,6.4173,2.73337
413,0.0324593,30.0325,6.40925,2.73986
414,0.0324189,30.0324,6.4012,2.74635
415,0.0323786,30.0324,6.39316,2.75283
416,0.0323383,30.0323,6.38512,2.75932
417,0.0322981,30.0323,6.37708,2.7658
418,0.0322578,30.0323,6.36904,2.77229
419,0.0322176,30.0322,6.36101,2.77877
420,0.0321773,30.0322,6.35298,2.78525
421,0.0321371,30.0321,6.34495,2.79173
422,0.0320969,30.0321,6.33693,2.79821
423,0.0320567,30.0321,6.32891,2.80468
424,0.0320165,30.032,6.32089,2.81116
425,0.0319764,30.032,6.31288,2.81763
426,0.0319363,30.0319,6.30487,2.82411
427,0.0318961,30.0319,6.29686,2.83058
428,0.031856,30.0319,6.28885,2.83705
429,0.0318159,30.0318,6.28085,2.84352
430,0.0317759,30.0318,6.27285,2.84999
431,0.0317358,30.0317,6.26486,2.85646
432,0.0316958,30.0317,6.25687,2.86293
433,0.0316557,30.0317,6.24888,2.86939
434,0.0316157,30.0316,6.24089,2.87586
435,0.0315757,30.0316,6.23291,2.88232
436,0.0315357,30.0315,6.22493,2.88878
437,0.0314958,30.0315,6.21695,2.89524
438,0.0314558,30.0315,6.20898,2.9017
439,0.0314159,30.0314,6.20101,2.90816
440,0.0313759,30.0314,6.19304,2.91462
441,0.031336,30.0313,6.18508,2.92108
442,0.0312961,30.0313,6.17712,2.92753
443,0.0312563,30.0313,6.16916,2.93399
444,0.0312164,30.0312,6.1612,2.94044
445,0.0311766,30.0312,6.15325,2.94689
446,0.0311367,30.0311,6.1453,2.95335
447,0.0310969,30.0311,6.13736,2.95979
448,0.0310571,30.0311,6.12942,2.96624
449,0.0310173,30.031,6.12148,2.97269
450,0.0309776,30.031,6.11354,2.97914
451,0.0309378,30.0309,6.10561,2.98558
452,0.0308981,30.0309,6.09768,2.99203
453,0.0308583,30.0309,6.08975,2.99847
454,0.0308186,30.0308,6.08183,3.00491
455,0.0307789,30.0308,6.07391,3.01135
456,0.0307393,30.0307,6.06599,3.01779
457,0.0306996,30.0307,6.05808,3.02423
458,0.03066,30.0307,6.05017,3.03066
459,0.0306203,30.0306,6.04226,3.0371
460,0.0305807,30.0306,6.03436,3.04353
461,0.0305411,30.0305,6.02645,3.04997
462,0.0305016,30.0305,6.01856,3.0564
463,0.030462,30.0305,6.01066,3.06283
464,0.0304224,30.0304,6.00277,3.06926
465,0.0303829,30.0304,5.99488,3.07569
466,0.0303434,30.0303,5.987,3.08212
467,0.0303039,30.0303,5.97911,3.08854
468,0.0302644,30.0303,5.97123,3.09497
469,0.0302249,30.0302,5.96336,3.10139
470,0.0301855,30.0302,5.95549,3.10781
471,0.030146,30.0301,5.94762,3.11423
472,0.0301066,30.0301,5.93975,3.12065
473,0.0300672,30.0301,5.93189,3.12707
474,0.0300278,30.03,5.92403,3.13349
475,0.0299884,30.03,5.91617,3.13991
476,0.0299491,30.0299,5.90832,3.14632
477,0.0299097,30.0299,5.90047,3.15273
478,0.0298704,30.0299,5.89262,3.15915
479,0.0298311,30.0298,5.88477,3.16556
480,0.0297918,30.0298,5.87693,3.17197
481,0.0297525,30.0298,5.8691,3.17838
482,0.0297132,30.0297,5.86126,3.18478
483,0.0296739,30.0297,5.85343,3.19119
484,0.0296347,30.0296,5.8456,3.1976
485,0.0295955,30.0296,5.83778,3.204
486,0.0295563,30.0296,5.82995,3.2104
487,0.0295171,30.0295,5.82214,3.2168
488,0.0294779,30.0295,5.81432,3.2232
489,0.0294387,30.0294,5.80651,3.2296
490,0.0293996,30.0294,5.7987,3.236
491,0.0293605,30.0294,5.79089,3.2424
492,0.0293214,30.0293,5.78309,3.24879
493,0.0292823,30.0293,5.77529,3.25518
494,0.0292432,30.0292,5.7675,3.26158
495,0.0292041,30.0292,5.7597,3.26797
496,0.0291651,30.0292,5.75191,3.27436
497,0.029126,30.0291,5.74413,3.28075
498,0.029087,30.0291,5.73634,3.28713
499,0.029048,30.029,5.72856,3.29352
500,0.029009,30.029,5.72079,3.2999
501,0.0289701,30.029,5.71301,3.30629
502,0.0289311,30.0289,5.70524,3.31267
503,0.0288922,30.0289,5.69747,3.31905
504,0.0288532,30.0289,5.68971,3.32543
505,0.0288143,30.0288,5.68195,3.33181
506,0.0287755,30.0288,5.67419,3.33819
507,0.0287366,30.0287,5.66644,3.34456
508,0.0286977,30.0287,5.65869,3.35094
509,0.0286589,30.0287,5.65094,3.35731
510,0.02862,30.0286,5.64319,3.36368
511,0.0285812,30.0286,5.63545,3.37005
512,0.0285424,30.0285,5.62771,3.37642
513,0.0285037,30.0285,5.61998,3.38279
514,0.0284649,30.0285,5.61225,3.38915
515,0.0284261,30.0284,5.60452,3.39552
516,0.0283874,30.0284,5.59679,3.40188
517,0.0283487,30.0283,5.58907,3.40824
518,0.02831,30.0283,5.58135,3.41461
519,0.0282713,30.0283,5.57364,3.42097
520,0.0282326,30.0282,5.56593,3.42732
521,0.028194,30.0282,5.55822,3.43368
522,0.0281554,30.0282,5.55051,3.44004
523,0.0281167,30.0281,5.54281,3.44639
524,0.0280781,30.0281,5.53511,3.45274
525,0.0280395,30.028,5.52741,3.4591
526,0.028001,30.028,5.51972,3.46545
527,0.0279624,30.028,5.51203,3.4718
528,0.0279239,30.0279,5.50435,3.47814
529,0.0278854,30.0279,5.49666,3.48449
